time,altitude,velocity
0.000000,40.800000,3.209063
1.000000,40.803737,3.209053
2.000000,40.814948,3.209023
3.000000,40.833633,3.208973
4.000000,40.859792,3.208902
5.000000,40.893424,3.208812
6.000000,40.934531,3.208702
7.000000,40.983110,3.208572
8.000000,41.039163,3.208422
9.000000,41.102689,3.208252
10.000000,41.173688,3.208062
11.000000,41.252160,3.207852
12.000000,41.338103,3.207622
13.000000,41.431519,3.207372
14.000000,41.532406,3.207102
15.000000,41.640764,3.206813
16.000000,41.756593,3.206503
17.000000,41.879892,3.206173
18.000000,42.010661,3.205824
19.000000,42.148899,3.205455
20.000000,42.294606,3.205066
21.000000,42.447781,3.204657
22.000000,42.608423,3.204228
23.000000,42.776532,3.203780
24.000000,42.952108,3.203312
25.000000,43.135149,3.202824
26.000000,43.325655,3.202316
27.000000,43.523625,3.201789
28.000000,43.729059,3.201242
29.000000,43.941954,3.200676
30.000000,44.162312,3.200090
31.000000,44.390130,3.199484
32.000000,44.625408,3.198859
33.000000,44.868146,3.198215
34.000000,45.118341,3.197551
35.000000,45.375993,3.196868
36.000000,45.641101,3.196165
37.000000,45.913665,3.195443
38.000000,46.193682,3.194702
39.000000,46.481152,3.193942
40.000000,46.776073,3.193162
41.000000,47.078445,3.192363
42.000000,47.388267,3.191545
43.000000,47.705537,3.190708
44.000000,48.030253,3.189852
45.000000,48.362415,3.188977
46.000000,48.702022,3.188083
47.000000,49.049071,3.187171
48.000000,49.403562,3.186239
49.000000,49.765493,3.185289
50.000000,50.134863,3.184319
51.000000,50.511670,3.183332
52.000000,50.895914,3.182325
53.000000,51.287591,3.181300
54.000000,51.686701,3.180256
55.000000,52.093243,3.179194
56.000000,52.507214,3.178114
57.000000,52.928614,3.177015
58.000000,53.357439,3.175898
59.000000,53.793690,3.174763
60.000000,54.237363,3.173609
61.000000,54.688458,3.172438
62.000000,55.146972,3.171248
63.000000,55.612903,3.170040
64.000000,56.086251,3.168814
65.000000,56.567013,3.167571
66.000000,57.055186,3.166310
67.000000,57.550770,3.165031
68.000000,58.053762,3.163734
69.000000,58.564161,3.162419
70.000000,59.081964,3.161088
71.000000,59.607169,3.159738
72.000000,60.139774,3.158371
73.000000,60.679777,3.156987
74.000000,61.227177,3.155586
75.000000,61.781970,3.154167
76.000000,62.344155,3.152732
77.000000,62.913729,3.151279
78.000000,63.490691,3.149809
79.000000,64.075037,3.148322
80.000000,64.666766,3.146819
81.000000,65.265876,3.145299
82.000000,65.872364,3.143762
83.000000,66.486227,3.142208
84.000000,67.107464,3.140638
85.000000,67.736072,3.139052
86.000000,68.372047,3.137449
87.000000,69.015389,3.135829
88.000000,69.666094,3.134194
89.000000,70.324160,3.132543
90.000000,70.989585,3.130875
91.000000,71.662365,3.129191
92.000000,72.342498,3.127492
93.000000,73.029981,3.125777
94.000000,73.724812,3.124046
95.000000,74.426988,3.122299
96.000000,75.136506,3.120537
97.000000,75.853364,3.118759
98.000000,76.577558,3.116966
99.000000,77.309086,3.115158
100.000000,78.047945,3.113334
101.000000,78.794133,3.111495
102.000000,79.547645,3.109641
103.000000,80.308480,3.107773
104.000000,81.076633,3.105889
105.000000,81.852104,3.103990
106.000000,82.634887,3.102077
107.000000,83.424980,3.100149
108.000000,84.222381,3.098207
109.000000,85.027086,3.096250
110.000000,85.839091,3.094279
111.000000,86.658394,3.092294
112.000000,87.484992,3.090294
113.000000,88.318881,3.088281
114.000000,89.160058,3.086253
115.000000,90.008520,3.084212
116.000000,90.864263,3.082157
117.000000,91.727284,3.080088
118.000000,92.597581,3.078005
119.000000,93.475148,3.075909
120.000000,94.359983,3.073799
121.000000,95.252083,3.071676
122.000000,96.151444,3.069540
123.000000,97.058063,3.067391
124.000000,97.971935,3.065228
125.000000,98.893058,3.063053
126.000000,99.821428,3.060865
127.000000,100.757041,3.058664
128.000000,101.699893,3.056450
129.000000,102.649982,3.054224
130.000000,103.607303,3.051985
131.000000,104.571852,3.049734
132.000000,105.543626,3.047470
133.000000,106.522621,3.045194
134.000000,107.508834,3.042906
135.000000,108.502260,3.040606
136.000000,109.502895,3.038295
137.000000,110.510736,3.035971
138.000000,111.525779,3.033635
139.000000,112.548019,3.031288
140.000000,113.577454,3.028930
141.000000,114.614078,3.026560
142.000000,115.657888,3.024178
143.000000,116.708880,3.021785
144.000000,117.767049,3.019382
145.000000,118.832392,3.016967
146.000000,119.904905,3.014541
147.000000,120.984583,3.012104
148.000000,122.071422,3.009656
149.000000,123.165418,3.007198
150.000000,124.266566,3.004729
151.000000,125.374863,3.002250
152.000000,126.490305,2.999760
153.000000,127.612886,2.997260
154.000000,128.742602,2.994750
155.000000,129.879450,2.992229
156.000000,131.023424,2.989699
157.000000,132.174521,2.987158
158.000000,133.332735,2.984608
159.000000,134.498063,2.982048
160.000000,135.670500,2.979479
161.000000,136.850041,2.976899
162.000000,138.036682,2.974311
163.000000,139.230418,2.971713
164.000000,140.431245,2.969106
165.000000,141.639157,2.966489
166.000000,142.854151,2.963864
167.000000,144.076222,2.961229
168.000000,145.305364,2.958586
169.000000,146.541574,2.955934
170.000000,147.784846,2.953273
171.000000,149.035176,2.950604
172.000000,150.292558,2.947926
173.000000,151.556988,2.945240
174.000000,152.828462,2.942545
175.000000,154.106974,2.939842
176.000000,155.392519,2.937131
177.000000,156.685092,2.934412
178.000000,157.984688,2.931685
179.000000,159.291303,2.928950
180.000000,160.604932,2.926208
181.000000,161.925568,2.923457
182.000000,163.253208,2.920699
183.000000,164.587846,2.917934
184.000000,165.929477,2.915161
185.000000,167.278095,2.912381
186.000000,168.633697,2.909593
187.000000,169.996275,2.906799
188.000000,171.365826,2.903997
189.000000,172.742344,2.901189
190.000000,174.125824,2.898374
191.000000,175.516260,2.895551
192.000000,176.913647,2.892723
193.000000,178.317980,2.889887
194.000000,179.729253,2.887045
195.000000,181.147461,2.884197
196.000000,182.572598,2.881342
197.000000,184.004659,2.878481
198.000000,185.443639,2.875614
199.000000,186.889532,2.872741
200.000000,188.342333,2.869862
201.000000,189.802035,2.866976
202.000000,191.268634,2.864085
203.000000,192.742123,2.861189
204.000000,194.222498,2.858286
205.000000,195.709752,2.855379
206.000000,197.203880,2.852465
207.000000,198.704876,2.849546
208.000000,200.212735,2.846622
209.000000,201.727450,2.843693
210.000000,203.249016,2.840759
211.000000,204.777426,2.837819
212.000000,206.312677,2.834874
213.000000,207.854760,2.831925
214.000000,209.403671,2.828971
215.000000,210.959403,2.826012
216.000000,212.521952,2.823048
217.000000,214.091310,2.820080
218.000000,215.667471,2.817107
219.000000,217.250431,2.814130
220.000000,218.840182,2.811149
221.000000,220.436718,2.808163
222.000000,222.040035,2.805173
223.000000,223.650125,2.802179
224.000000,225.266982,2.799181
225.000000,226.890601,2.796179
226.000000,228.520974,2.793173
227.000000,230.158097,2.790163
228.000000,231.801962,2.787149
229.000000,233.452564,2.784132
230.000000,235.109896,2.781112
231.000000,236.773952,2.778087
232.000000,238.444726,2.775060
233.000000,240.122211,2.772029
234.000000,241.806401,2.768995
235.000000,243.497289,2.765957
236.000000,245.194870,2.762917
237.000000,246.899136,2.759873
238.000000,248.610082,2.756826
239.000000,250.327700,2.753777
240.000000,252.051985,2.750724
241.000000,253.782930,2.747669
242.000000,255.520528,2.744611
243.000000,257.264773,2.741551
244.000000,259.015658,2.738488
245.000000,260.773176,2.735422
246.000000,262.537322,2.732354
247.000000,264.308088,2.729284
248.000000,266.085467,2.726211
249.000000,267.869454,2.723136
250.000000,269.660040,2.720059
251.000000,271.457220,2.716980
252.000000,273.260987,2.713898
253.000000,275.071333,2.710815
254.000000,276.888253,2.707730
255.000000,278.711739,2.704643
256.000000,280.541785,2.701554
257.000000,282.378383,2.698464
258.000000,284.221526,2.695372
259.000000,286.071209,2.692278
260.000000,287.927423,2.689183
261.000000,289.790162,2.686086
262.000000,291.659419,2.682988
263.000000,293.535186,2.679889
264.000000,295.417458,2.676788
265.000000,297.306226,2.673686
266.000000,299.201484,2.670583
267.000000,301.103225,2.667479
268.000000,303.011441,2.664374
269.000000,304.926125,2.661268
270.000000,306.847271,2.658161
271.000000,308.774870,2.655053
272.000000,310.708917,2.651944
273.000000,312.649403,2.648835
274.000000,314.596321,2.645724
275.000000,316.549664,2.642614
276.000000,318.509426,2.639502
277.000000,320.475597,2.636390
278.000000,322.448172,2.633278
279.000000,324.427143,2.630165
280.000000,326.412502,2.627052
281.000000,328.404242,2.623938
282.000000,330.402356,2.620824
283.000000,332.406836,2.617710
284.000000,334.417674,2.614596
285.000000,336.434864,2.611482
286.000000,338.458398,2.608367
287.000000,340.488268,2.605253
288.000000,342.524467,2.602139
289.000000,344.566987,2.599025
290.000000,346.615820,2.595911
291.000000,348.670960,2.592797
292.000000,350.732398,2.589683
293.000000,352.800126,2.586570
294.000000,354.874138,2.583457
295.000000,356.954425,2.580344
296.000000,359.040980,2.577232
297.000000,361.133795,2.574120
298.000000,363.232862,2.571009
299.000000,365.338174,2.567899
300.000000,367.449722,2.564789
301.000000,369.567499,2.561680
302.000000,371.691498,2.558571
303.000000,373.821709,2.555463
304.000000,375.958126,2.552356
305.000000,378.100741,2.549250
306.000000,380.249545,2.546145
307.000000,382.404531,2.543040
308.000000,384.565691,2.539937
309.000000,386.733016,2.536834
310.000000,388.906500,2.533733
311.000000,391.086133,2.530633
312.000000,393.271908,2.527534
313.000000,395.463817,2.524436
314.000000,397.661852,2.521339
315.000000,399.866005,2.518244
316.000000,402.076267,2.515149
317.000000,404.292631,2.512057
318.000000,406.515088,2.508965
319.000000,408.743630,2.505875
320.000000,410.978250,2.502786
321.000000,413.218938,2.499699
322.000000,415.465687,2.496614
323.000000,417.718489,2.493530
324.000000,419.977335,2.490447
325.000000,422.242217,2.487366
326.000000,424.513127,2.484287
327.000000,426.790056,2.481210
328.000000,429.072996,2.478134
329.000000,431.361939,2.475060
330.000000,433.656877,2.471988
331.000000,435.957800,2.468918
332.000000,438.264702,2.465849
333.000000,440.577573,2.462783
334.000000,442.896404,2.459718
335.000000,445.221189,2.456655
336.000000,447.551917,2.453595
337.000000,449.888581,2.450536
338.000000,452.231172,2.447480
339.000000,454.579681,2.444425
340.000000,456.934101,2.441373
341.000000,459.294422,2.438323
342.000000,461.660636,2.435275
343.000000,464.032734,2.432229
344.000000,466.410708,2.429186
345.000000,468.794550,2.426145
346.000000,471.184250,2.423106
347.000000,473.579799,2.420069
348.000000,475.981191,2.417035
349.000000,478.388414,2.414003
350.000000,480.801462,2.410974
351.000000,483.220325,2.407947
352.000000,485.644994,2.404922
353.000000,488.075461,2.401900
354.000000,490.511717,2.398881
355.000000,492.953753,2.395864
356.000000,495.401561,2.392850
357.000000,497.855131,2.389838
358.000000,500.314455,2.386829
359.000000,502.779524,2.383823
360.000000,505.250328,2.380819
361.000000,507.726861,2.377818
362.000000,510.209111,2.374819
363.000000,512.697071,2.371824
364.000000,515.190731,2.368831
365.000000,517.690083,2.365841
366.000000,520.195117,2.362854
367.000000,522.705825,2.359870
368.000000,525.222198,2.356888
369.000000,527.744226,2.353909
370.000000,530.271901,2.350934
371.000000,532.805214,2.347961
372.000000,535.344155,2.344991
373.000000,537.888716,2.342024
374.000000,540.438887,2.339060
375.000000,542.994659,2.336100
376.000000,545.556024,2.333142
377.000000,548.122971,2.330187
378.000000,550.695493,2.327235
379.000000,553.273579,2.324287
380.000000,555.857221,2.321341
381.000000,558.446410,2.318399
382.000000,561.041136,2.315460
383.000000,563.641390,2.312524
384.000000,566.247162,2.309591
385.000000,568.858444,2.306661
386.000000,571.475227,2.303735
387.000000,574.097501,2.300812
388.000000,576.725256,2.297892
389.000000,579.358484,2.294975
390.000000,581.997175,2.292062
391.000000,584.641320,2.289152
392.000000,587.290910,2.286245
393.000000,589.945934,2.283341
394.000000,592.606385,2.280441
395.000000,595.272252,2.277545
396.000000,597.943526,2.274651
397.000000,600.620197,2.271761
398.000000,603.302257,2.268875
399.000000,605.989695,2.265992
400.000000,608.682503,2.263112
401.000000,611.380670,2.260236
402.000000,614.084188,2.257363
403.000000,616.793047,2.254494
404.000000,619.507237,2.251628
405.000000,622.226749,2.248766
406.000000,624.951573,2.245907
407.000000,627.681700,2.243052
408.000000,630.417120,2.240200
409.000000,633.157824,2.237352
410.000000,635.903802,2.234507
411.000000,638.655045,2.231667
412.000000,641.411542,2.228829
413.000000,644.173285,2.225995
414.000000,646.940263,2.223165
415.000000,649.712467,2.220339
416.000000,652.489887,2.217516
417.000000,655.272514,2.214697
418.000000,658.060338,2.211881
419.000000,660.853349,2.209069
420.000000,663.651538,2.206261
421.000000,666.454895,2.203457
422.000000,669.263409,2.200656
423.000000,672.077072,2.197859
424.000000,674.895874,2.195065
425.000000,677.719804,2.192276
426.000000,680.548854,2.189490
427.000000,683.383013,2.186708
428.000000,686.222271,2.183929
429.000000,689.066619,2.181155
430.000000,691.916046,2.178384
431.000000,694.770544,2.175617
432.000000,697.630102,2.172854
433.000000,700.494710,2.170094
434.000000,703.364358,2.167338
435.000000,706.239037,2.164587
436.000000,709.118737,2.161839
437.000000,712.003447,2.159094
438.000000,714.893158,2.156354
439.000000,717.787860,2.153617
440.000000,720.687543,2.150885
441.000000,723.592197,2.148156
442.000000,726.501812,2.145431
443.000000,729.416377,2.142710
444.000000,732.335884,2.139993
445.000000,735.260322,2.137279
446.000000,738.189682,2.134570
447.000000,741.123952,2.131864
448.000000,744.063123,2.129163
449.000000,747.007185,2.126465
450.000000,749.956128,2.123771
451.000000,752.909942,2.121081
452.000000,755.868617,2.118395
453.000000,758.832143,2.115713
454.000000,761.800509,2.113035
455.000000,764.773706,2.110361
456.000000,767.751724,2.107691
457.000000,770.734552,2.105024
458.000000,773.722180,2.102362
459.000000,776.714598,2.099704
460.000000,779.711796,2.097049
461.000000,782.713764,2.094399
462.000000,785.720492,2.091752
463.000000,788.731969,2.089110
464.000000,791.748186,2.086471
465.000000,794.769131,2.083836
466.000000,797.794796,2.081206
467.000000,800.825169,2.078579
468.000000,803.860241,2.075957
469.000000,806.900001,2.073338
470.000000,809.944439,2.070723
471.000000,812.993545,2.068112
472.000000,816.047308,2.065506
473.000000,819.105719,2.062903
474.000000,822.168766,2.060304
475.000000,825.236441,2.057710
476.000000,828.308732,2.055119
477.000000,831.385629,2.052532
478.000000,834.467122,2.049950
479.000000,837.553200,2.047371
480.000000,840.643854,2.044796
481.000000,843.739073,2.042226
482.000000,846.838846,2.039659
483.000000,849.943163,2.037096
484.000000,853.052014,2.034538
485.000000,856.165389,2.031983
486.000000,859.283277,2.029433
487.000000,862.405668,2.026886
488.000000,865.532551,2.024343
489.000000,868.663916,2.021805
490.000000,871.799752,2.019270
491.000000,874.940050,2.016740
492.000000,878.084799,2.014214
493.000000,881.233988,2.011691
494.000000,884.387606,2.009173
495.000000,887.545645,2.006658
496.000000,890.708092,2.004148
497.000000,893.874938,2.001642
498.000000,897.046172,1.999139
499.000000,900.221784,1.996641
500.000000,903.401763,1.994147
501.000000,906.586099,1.991657
502.000000,909.774781,1.989170
503.000000,912.967799,1.986688
504.000000,916.165142,1.984210
505.000000,919.366800,1.981736
506.000000,922.572762,1.979266
507.000000,925.783018,1.976800
508.000000,928.997557,1.974338
509.000000,932.216368,1.971880
510.000000,935.439442,1.969426
511.000000,938.666768,1.966976
512.000000,941.898334,1.964530
513.000000,945.134131,1.962088
514.000000,948.374148,1.959650
515.000000,951.618375,1.957216
516.000000,954.866800,1.954786
517.000000,958.119413,1.952360
518.000000,961.376205,1.949938
519.000000,964.637163,1.947520
520.000000,967.902277,1.945106
521.000000,971.171538,1.942696
522.000000,974.444934,1.940290
523.000000,977.722454,1.937888
524.000000,981.004089,1.935490
525.000000,984.289827,1.933096
526.000000,987.579657,1.930706
527.000000,990.873570,1.928320
528.000000,994.171555,1.925938
529.000000,997.473600,1.923560
530.000000,1000.779695,1.921186
531.000000,1004.089831,1.918816
532.000000,1007.403995,1.916450
533.000000,1010.722177,1.914088
534.000000,1014.044367,1.911730
535.000000,1017.370554,1.909375
536.000000,1020.700727,1.907025
537.000000,1024.034876,1.904679
538.000000,1027.372990,1.902337
539.000000,1030.715058,1.899998
540.000000,1034.061069,1.897664
541.000000,1037.411014,1.895334
542.000000,1040.764880,1.893007
543.000000,1044.122658,1.890685
544.000000,1047.484337,1.888366
545.000000,1050.849905,1.886051
546.000000,1054.219353,1.883741
547.000000,1057.592670,1.881434
548.000000,1060.969844,1.879131
549.000000,1064.350866,1.876832
550.000000,1067.735724,1.874537
551.000000,1071.124408,1.872246
552.000000,1074.516906,1.869959
553.000000,1077.913209,1.867676
554.000000,1081.313305,1.865396
555.000000,1084.717184,1.863121
556.000000,1088.124835,1.860849
557.000000,1091.536247,1.858582
558.000000,1094.951410,1.856318
559.000000,1098.370312,1.854058
560.000000,1101.792943,1.851802
561.000000,1105.219293,1.849550
562.000000,1108.649349,1.847302
563.000000,1112.083103,1.845057
564.000000,1115.520542,1.842817
565.000000,1118.961656,1.840580
566.000000,1122.406435,1.838347
567.000000,1125.854867,1.836119
568.000000,1129.306942,1.833893
569.000000,1132.762649,1.831672
570.000000,1136.221977,1.829455
571.000000,1139.684915,1.827241
572.000000,1143.151453,1.825032
573.000000,1146.621579,1.822826
574.000000,1150.095284,1.820624
575.000000,1153.572556,1.818426
576.000000,1157.053384,1.816231
577.000000,1160.537758,1.814041
578.000000,1164.025666,1.811854
579.000000,1167.517099,1.809671
580.000000,1171.012045,1.807492
581.000000,1174.510493,1.805316
582.000000,1178.012432,1.803145
583.000000,1181.517853,1.800977
584.000000,1185.026743,1.798813
585.000000,1188.539092,1.796653
586.000000,1192.054890,1.794496
587.000000,1195.574125,1.792343
588.000000,1199.096786,1.790194
589.000000,1202.622864,1.788049
590.000000,1206.152346,1.785908
591.000000,1209.685223,1.783770
592.000000,1213.221483,1.781636
593.000000,1216.761116,1.779506
594.000000,1220.304110,1.777379
595.000000,1223.850455,1.775257
596.000000,1227.400140,1.773138
597.000000,1230.953155,1.771022
598.000000,1234.509488,1.768911
599.000000,1238.069128,1.766803
600.000000,1241.632065,1.764699
601.000000,1245.198288,1.762598
602.000000,1248.767786,1.760501
603.000000,1252.340549,1.758408
604.000000,1255.916564,1.756319
605.000000,1259.495823,1.754233
606.000000,1263.078313,1.752151
607.000000,1266.664024,1.750072
608.000000,1270.252945,1.747998
609.000000,1273.845065,1.745926
610.000000,1277.440374,1.743859
611.000000,1281.038861,1.741795
612.000000,1284.640514,1.739735
613.000000,1288.245323,1.737678
614.000000,1291.853278,1.735625
615.000000,1295.464366,1.733576
616.000000,1299.078578,1.731530
617.000000,1302.695903,1.729488
618.000000,1306.316329,1.727450
619.000000,1309.939847,1.725415
620.000000,1313.566445,1.723384
621.000000,1317.196112,1.721356
622.000000,1320.828837,1.719332
623.000000,1324.464610,1.717311
624.000000,1328.103420,1.715294
625.000000,1331.745256,1.713281
626.000000,1335.390108,1.711271
627.000000,1339.037963,1.709265
628.000000,1342.688813,1.707262
629.000000,1346.342645,1.705263
630.000000,1349.999449,1.703267
631.000000,1353.659214,1.701275
632.000000,1357.321930,1.699286
633.000000,1360.987585,1.697301
634.000000,1364.656168,1.695320
635.000000,1368.327670,1.693342
636.000000,1372.002079,1.691367
637.000000,1375.679384,1.689396
638.000000,1379.359574,1.687429
639.000000,1383.042640,1.685464
640.000000,1386.728569,1.683504
641.000000,1390.417351,1.681547
642.000000,1394.108976,1.679593
643.000000,1397.803432,1.677643
644.000000,1401.500708,1.675696
645.000000,1405.200795,1.673753
646.000000,1408.903681,1.671813
647.000000,1412.609355,1.669877
